# Time (s),Altitude (ft),Vertical velocity (m/s),Vertical acceleration (m/s²)
0.01,-0.001371180450907,-0.083587134488451,-8.358705625359567
0.02,0.003804545824244,0.231934724597936,23.197795958244903
0.03,0.02389985654612,0.993139219264274,76.1397120758947
0.04,0.069373845229834,1.779021706172644,78.60844759839672
0.05,0.143723723338724,2.753442774642575,97.47127730285709
0.06,0.251217672767232,3.799496914291342,104.63817115020855
0.07,0.393385807514349,4.867183194467405,106.80175727782209
0.08,0.570908305417386,5.954700932145093,108.7857746336276
0.09,0.784302999289169,7.05395569064327,109.96028502791805
0.1,1.033909242188978,8.162157246627798,110.85503354305116
0.11,1.320020670186498,9.279311850828392,111.75035246685542
0.12,1.642921238652318,10.40482438943051,112.58674641258162
0.13,2.002826198244788,11.535100241719336,113.0630215686953
0.14,2.399881967640493,12.669536460658962,113.47857179025634
0.15,2.83422491710739,13.80812530749077,113.89348782451546
0.16,3.305991177928929,14.9508594690871,114.30739772572005
0.17,3.815315245831936,16.09764849370131,114.71275154044079
0.18,4.362308559370113,17.2471764064193,114.98646830395376
0.19,4.947053462487855,18.398984029905534,115.21402936519523
0.2,5.569624631462351,19.553064193705836,115.440868968707
0.21,6.230096549180776,20.709413613831344,115.66777915690956
0.22,6.928543636076229,21.86802915506927,115.89398477145285
0.23,7.665033646455424,23.028509173638536,116.08014488207975
0.24,8.43960886073374,24.189701820159,116.15096774420644
0.25,9.252291322878367,25.351525471281803,116.21360793913131
0.26,10.103101574635707,26.513970047385513,116.27515163154617
0.27,10.992059816674148,27.67702540562646,116.33576344518684
0.28,11.919167138478809,28.83953570025733,116.28055177740782
0.29,12.884366666250251,29.999124305853893,115.98782036326328
0.3,13.887561146162843,31.155706158900202,115.6865980485948
0.31,14.928651706675698,32.30926736259958,115.3839282138922
0.32,16.007589759304185,33.462888430511605,115.389660091154
0.33,17.124427908692013,34.619655871382975,115.70387976240205
0.345,18.870978667327552,36.36052984811086,116.10899933545782
0.3675,21.65190784483652,38.98491353736764,116.71326195040645
0.40125,26.188109940127912,42.950735996762376,117.61241583516812
0.45125,33.72103822543211,48.89494967607665,119.04733523875245
0.50125,42.23732061700588,54.93740824103436,120.95740346499808
0.55125,51.75270146241505,61.07572832576166,122.86064838715943
0.60125,62.282700356251404,67.30740353483134,124.71488198863706
0.65125,73.83952850482346,73.59463566771831,125.81303764022785
0.70125,86.43084190945149,79.91954977246961,126.54874236415341
0.75125,100.06470514489116,86.30517517164931,127.74902680513036
0.801250000000001,114.75293612680068,92.7740515215447,129.39311465688124
0.851250000000001,130.50904886714886,99.32448727372358,131.00665235454073
0.901250000000001,147.3463524829808,105.95574601385556,132.615112975278
0.951250000000001,165.27833496848925,112.67063752293384,134.274880523374
1.001250000000001,184.31782992949303,119.45835722241061,135.7209848538393
1.051250000000001,204.47523618214845,126.29997726950927,136.78482176384045
1.101250000000001,225.76148233004864,133.22096758794152,138.35821942605614
1.151250000000001,248.19069300618327,140.23460854335096,140.1864228192328
1.201250000000001,271.7787260878268,147.34889474003828,142.1767257819407
1.251250000000001,296.54692964856764,154.62280366634505,145.3380178308484
1.301250000000001,322.52024394214146,162.0410619799771,148.19399923018665
1.351250000000001,349.71735306043155,169.54277401988742,149.8301086109287
1.401250000000001,378.1466282730459,177.06305582392116,150.16589233441292
1.451250000000001,407.80958853514187,184.58320140417362,150.12523962632613
1.501250000000001,438.7081216116389,192.1266658808663,150.56377356811146
1.551250000000001,470.84836548096365,199.72187057720726,151.58501619154268
1.601250000000001,504.24394169246847,207.43131471838075,153.84289783811084
1.651250000000001,538.9071549105618,215.17626365485714,154.51190156788948
1.701250000000001,574.8335998227335,222.83186427750263,152.6767560693325
1.751250000000001,612.0113084861401,230.4308289891536,151.4943166649841
1.801250000000001,650.4307928295019,237.97077073372077,150.26657675015088
1.851250000000001,690.0806829769141,245.43131135465237,148.64455783093342
1.901250000000001,730.9452087644913,252.77925949923096,146.3754724172558
1.951250000000002,773.0051795972822,260.00596466434496,143.93095163567352
2.001250000000002,816.2373840397034,267.0705682546672,140.6512477280066
2.051250000000001,860.6078697259024,273.8831727857986,135.5657917908906
2.101250000000001,906.0632162918802,280.2968298897687,127.57038981559317
2.151250000000001,952.5346945884878,286.27201361103334,118.82015254385355
2.201250000000001,999.9492802077787,291.7953324698137,109.79280576686152
2.251250000000001,1048.23184190443,296.85514202839454,100.56227852751441
2.301250000000001,1097.3065947478779,301.4543095291111,91.37707245891195
2.35125,1147.0980854379416,305.5940199967949,82.21689637712569
2.40125,1197.5311642949828,309.27737806669677,73.14935138775563
2.45125,1248.536830064856,312.5759491595857,65.51419217208982
2.50125,1300.055705236702,315.5352384086591,58.76211850428031
2.55125,1352.0352369570787,318.19252100355743,52.737146337114865
2.601249999999999,1404.4293205680283,320.58983879757255,47.56864781967357
2.651249999999999,1457.200258059085,322.78757992958305,43.60278730837199
2.701249999999999,1510.315586007313,324.7891897156996,39.71454821809093
2.751249999999999,1563.7435455648751,326.5995679124287,35.90574916491511
2.801249999999999,1617.455739543243,328.25478780816303,32.818497419624194
2.851249999999999,1671.427950797134,329.77008761920376,30.050808025701322
2.901249999999998,1725.6380421799013,331.15561630556726,27.49449598028571
2.951249999999998,1780.0652472043937,332.4176363707034,25.043353343129855
3.001249999999998,1834.6894104917512,333.5570344102486,22.595976485465116
3.051249999999998,1889.49038239395,334.57366606314946,20.166633117790003
3.101249999999998,1944.4481735273678,335.469438204326,17.78082677567696
3.151249999999997,1999.542764517932,336.24203160608494,15.347171702532052
3.201249999999997,2054.7540226520136,336.8922672566173,12.923257203219446
3.251249999999997,2110.062770302264,337.43098281483753,10.714207543131632
3.301249999999997,2165.4545159632394,337.90423576778795,9.435950810785162
3.351249999999997,2220.9235705111473,338.374219380705,9.382386272871395
3.401249999999997,2276.470578924175,338.8545967463659,9.588701587772633
3.451249999999996,2332.0889396290363,339.24442270123444,7.796735163294298
3.501249999999996,2387.736330213426,339.20974204077345,-0.620328307681049
3.541,2431.8819128751234,337.8042147558415,-35.05826035617755
3.591,2486.9961386285777,334.16389358159176,-71.88959799577255
3.641,2541.5206772426436,330.61383781332285,-70.13643864557815
3.690999999999999,2595.469907722277,327.1492103529316,-68.45078453161427
3.740999999999999,2648.8576139230695,323.76731580955783,-66.82445920157414
3.790999999999999,2701.697156418997,320.46539210902887,-65.26745767806673
3.840999999999999,2754.0012475009985,317.23774524546474,-63.86395456527271
3.890999999999999,2805.781509767187,314.0784305447255,-62.51477174695457
3.940999999999999,2857.0489615932042,310.9851727482898,-61.21747870731002
3.990999999999998,2907.8142670968955,307.9559785918414,-59.95496713248662
4.040999999999999,2958.0877804902325,304.9887342731897,-58.74992289522713
4.090999999999998,3007.8794060916994,302.08035894278805,-57.59486832451621
4.140999999999998,3057.1986048118874,299.2286439936985,-56.47486563490704
4.190999999999998,3106.0545621932815,296.43237430652226,-55.37596185880068
4.240999999999998,3154.456281218683,293.6901595161979,-54.32364720728898
4.290999999999998,3202.4124096051814,290.99931012388004,-53.319024812032254
4.340999999999998,3249.9312051406187,288.35806684058343,-52.33280428723217
4.390999999999997,3297.020729610372,285.76529263191577,-51.387772500753385
4.440999999999997,3343.6887502181016,283.21876826769204,-50.47978319021293
4.490999999999997,3389.9426918679333,280.71653371750085,-49.610453039066314
4.540999999999997,3435.7897227141016,278.2577796936431,-48.736196264432095
4.590999999999997,3481.2369756002404,275.84206134162827,-47.90457789348684
4.640999999999997,3526.2912967562233,273.4667715819112,-47.11538499303825
4.690999999999996,3570.959173742828,271.1305028461226,-46.333796551162344
4.740999999999996,3615.246975850776,268.8326237024743,-45.58561313661143
4.790999999999996,3659.1608754732833,266.5717849115,-44.84866652159517
4.840999999999996,3702.7069008220665,264.347308699909,-44.13488590677873
4.890999999999996,3745.890911431005,262.15787882307313,-43.44667338162229
4.940999999999995,3788.718561819969,260.00245263214424,-42.772682930692575
4.990999999999995,3831.19537834072,257.8803680506685,-42.11574246777439
5.040999999999995,3873.326738270858,255.79037085477074,-41.49066514720084
5.090999999999995,3915.1177880138866,253.73122625730934,-40.876138825243615
5.140999999999995,3956.5735485293053,251.70236407080316,-40.281366983959906
5.190999999999995,3997.698907848329,249.70286287830695,-39.69993633467722
5.240999999999994,4038.4986247480015,247.73198280836291,-39.13682430092227
5.290999999999994,4078.9773288721613,245.78899663442485,-38.583072763220244
5.340999999999994,4119.139573286474,243.87367965631475,-38.032420552135164
5.390999999999994,4158.989857734193,241.98533289295352,-37.509696934400836
5.440999999999994,4198.532470604176,240.12231330947986,-37.014995978648386
5.490999999999993,4237.771470722656,238.28363876216125,-36.52840025402434
5.540999999999993,4276.710854290896,236.46944540610897,-36.03617817624971
5.590999999999993,4315.354654423328,234.67979227525194,-35.553470793573915
5.640999999999993,4353.706840429743,232.91394953193148,-35.08570095389458
5.690999999999993,4391.7712337941675,231.17078282722366,-34.64658599127557
5.740999999999993,4429.5514473722105,229.44915566562938,-34.217524937568356
5.790999999999992,4467.050992469309,227.74885212517992,-33.79237922540368
5.840999999999992,4504.273370366251,226.0699696446667,-33.36254740250931
5.890999999999992,4541.22209987302,224.4124218897323,-32.94436348162791
5.940999999999992,4577.900610312812,222.77527664699656,-32.54710673707673
5.990999999999992,4614.312160371457,221.15750887225673,-32.16624038371452
6.040999999999992,4650.459859923969,219.558268195615,-31.803503948598955
6.090999999999991,4686.346702749536,217.97721592074444,-31.433375491970025
6.140999999999991,4721.975715227481,216.41481376735499,-31.06167833152643
6.190999999999991,4757.349956816434,214.87101699201244,-30.692475637152626
6.240999999999991,4792.472458092788,213.34551149586056,-30.332535414474695
6.290999999999991,4827.346151981459,211.83730702976146,-30.002003570046835
6.34099999999999,4861.973769243272,210.3453011594194,-29.677813980322433
6.39099999999999,4896.357949155797,208.86923899838615,-29.364211371171727
6.44099999999999,4930.501282959947,207.40896214235917,-29.044083601440324
6.49099999999999,4964.406386249708,205.96470582435805,-28.72680736356613
6.54099999999999,4998.075865806931,204.5361717183444,-28.41666872394222
6.59099999999999,5031.512267833922,203.12295956981555,-28.114166310665524
6.640999999999989,5064.7180771498015,201.7247382695363,-27.8171671345886
6.690999999999989,5097.695712382095,200.34089078078173,-27.54045892658147
6.740999999999989,5130.447461010383,198.97072486006667,-27.26498482942221
6.790999999999989,5162.975563506257,197.61411674701748,-26.999562504818723
6.840999999999989,5195.282216750831,196.2708676562392,-26.728056517109962
6.890999999999989,5227.36964405313,194.9413330351152,-26.4539572249125
6.940999999999988,5259.24009263463,193.62540347008937,-26.186212300062348
6.990999999999988,5290.895757406708,192.3225924675054,-25.929722410433392
7.040999999999988,5322.338727145239,191.0320355714265,-25.696143695065654
7.090999999999988,5353.570934304335,189.7529740637025,-25.463739574253573
7.140999999999988,5384.594286514987,188.4857572704134,-25.222235742027394
7.190999999999987,5415.410755029688,187.23060847139044,-24.984666865163607
7.240999999999987,5446.0223038235,185.98739807023847,-24.744174111568956
7.290999999999987,5476.4308837786975,184.75586856707474,-24.520535753817164
7.340999999999987,5506.638349221919,183.53540265873474,-24.298036680371617
7.390999999999987,5536.646511131958,182.32589458607822,-24.083572408105137
7.440999999999987,5566.457137001059,181.12702849379633,-23.87093094462914
7.490999999999986,5596.071969522787,179.93877135441332,-23.65964662958909
7.540999999999986,5625.492737401508,178.76093635966964,-23.454876474865667
7.543499999999987,5626.958711991344,178.70231184245654,-23.44474760541416
7.547249999999987,5629.156772552684,178.61442248920164,-23.429577765079216
7.552874999999987,5632.4518368024665,178.4826956723625,-23.406252665759503
7.561312499999987,5637.389878164856,178.28535630763156,-23.370510328090667
7.573968749999987,5644.786707942438,177.98991137851357,-23.31715438486301
7.592953124999987,5655.858985432449,177.5480044383213,-23.23785068963487
7.621429687499987,5672.415909415697,176.88789781182624,-23.124886597158465
7.664144531249987,5697.1360300016795,175.90364542861897,-22.959959895818386
7.714144531249986,5725.897716440357,174.7604237614032,-22.76948074422147
7.764144531249986,5754.472641681915,173.6266121974466,-22.583939897108074
7.814144531249986,5782.8623267456915,172.50198119008425,-22.397745878282958
7.864144531249986,5811.0683074173285,171.3869654135815,-22.202613420401377
7.914144531249986,5839.092180730652,170.28166284176413,-22.014449138736303
7.964144531249985,5866.93548175971,169.18531408499794,-21.839632887437073
8.014144531249986,5894.599651461344,168.09769836049026,-21.665062754625108
8.064144531249987,5922.086121093032,167.01872550470853,-21.498633458206967
8.114144531249988,5949.396243923158,165.9475894697968,-21.342708484019017
8.164144531249988,5976.531316531546,164.8846003128873,-21.177544441212692
8.214144531249989,6003.492684755099,163.82976769499044,-21.013517686844164
8.26414453124999,6030.281701536623,162.7833347854533,-20.844606868719374
8.31414453124999,6056.899747624766,161.74525140796905,-20.68009300977861
8.364144531249991,6083.348171843078,160.71524689792292,-20.522580117176723
8.414144531249992,6109.628263217007,159.6928834751372,-20.371516691354614
8.464144531249993,6135.74126555778,158.67808279367262,-20.222607925222704
8.514144531249993,6161.688394343933,157.67049760228142,-20.08010013949479
8.564144531249994,6187.470824084214,156.6700790980233,-19.937156678094947
8.614144531249995,6213.0897245785,155.67672503344102,-19.796880906615595
8.664144531249995,6238.546248076718,154.69039545484844,-19.65471367805806
8.714144531249996,6263.841563926107,153.71131255758164,-19.508793969287147
8.764144531249997,6288.976866634896,152.73948416220634,-19.366242678473697
8.814144531249998,6313.953322367781,151.77459493269504,-19.230248349092374
8.864144531249998,6338.772047851102,150.81638653380995,-19.100484688139947
8.914144531249999,6363.434102829796,149.86442220002627,-18.976228477988677
8.96414453125,6387.9405152886575,148.91882043098295,-18.849145082251187
9.01414453125,6412.292320712467,147.979404650268,-18.72746766850853
9.064144531250001,6436.490520438054,147.0460711454013,-18.604678383469853
9.114144531250002,6460.536124397,146.11898316271598,-18.47872306305273
9.164144531250003,6484.430164104417,145.19820063625883,-18.352463039877705
9.214144531250003,6508.17367576764,144.28374318238562,-18.22638668447157
9.264144531250004,6531.76769244812,143.37548877992904,-18.10848217543003
9.314144531250005,6555.213170588867,142.47266209066336,-18.002383902404755
9.364144531250005,6578.5109947327455,141.5753540936674,-17.889514484308474
9.414144531250006,6601.662087004531,140.68368940565884,-17.778346285445007
9.464144531250007,6624.667355996842,139.7974551334927,-17.66970429012624
9.514144531250007,6647.5276986785275,138.9167753707824,-17.557949154903035
9.564144531250008,6670.244028227936,138.04161890442026,-17.449298348646614
9.614144531250009,6692.817234873778,137.17181414595268,-17.341489512486014
9.66414453125001,6715.248207976551,136.3075320397404,-17.23086444135432
9.71414453125001,6737.5378499845365,135.4486543843052,-17.126085278989358
9.764144531250011,6759.687018191378,134.5948148053924,-17.028655410949423
9.814144531250012,6781.696512022598,133.74570693621513,-16.935895606612423
9.864144531250012,6803.5670936899605,132.901176961439,-16.8457734447335
9.914144531250013,6825.2995014668195,132.06108501103867,-16.756381967831846
9.964144531250014,6846.894473820504,131.22562383472194,-16.65997691770005
10.014144531250015,6868.3528035159015,130.395170596288,-16.559443981222447
10.064144531250015,6889.675308600549,129.56962659779117,-16.46143490496487
10.114144531250016,6910.862797897797,128.74908275727915,-16.36061305485323
10.164144531250017,6931.916095765249,127.93354272686823,-16.262267283421767
10.214144531250017,6952.836006988727,127.12277836629454,-16.170408955970217
10.264144531250018,6973.623282051426,126.31637973239022,-16.086168893407418
10.314144531250019,6994.27861426568,125.51410090192333,-16.00575723596332
10.36414453125002,7014.802661920841,124.71571811875701,-15.930224320789652
10.41414453125002,7035.196044140905,123.92099954996722,-15.858209627349874
10.464144531250021,7055.45935415942,123.12990200067907,-15.783424471827152
10.514144531250022,7075.593211158994,122.34278313905007,-15.69967876602895
10.564144531250022,7095.598301437571,121.5600151190092,-15.611248222885735
10.614144531250023,7115.475346928919,120.7816676878245,-15.521832553210793
10.664144531250024,7135.225083255315,120.00786812216984,-15.43166662877054
10.714144531250025,7154.848245174254,119.2384206632501,-15.347565544320458
10.764144531250025,7174.345522595186,118.47304312329425,-15.268497902759307
10.814144531250026,7193.717564149218,117.71152034935905,-15.192464511227183
10.864144531250027,7212.964995301653,116.95378361896043,-15.117626937018644
10.914144531250027,7232.088428214818,116.19969585147592,-15.047328502625122
10.964144531250028,7251.088436604682,115.44895850871474,-14.981064079908561
11.014144531250029,7269.96557061999,114.70162776777266,-14.913030901044328
11.06414453125003,7288.720382945092,113.95760048293575,-14.846282522393377
11.11414453125003,7307.353428619685,113.21708184698133,-14.775707183438028
11.164144531250031,7325.8652789654125,112.47996561268893,-14.707467238019452
11.214144531250032,7344.256500985454,111.74640756862867,-14.636232940194606
11.264144531250032,7362.527671777155,111.01627683386914,-14.567715385650972
11.314144531250033,7380.679360013765,110.28971438438573,-14.494769713460089
11.364144531250034,7398.712160986189,109.566783114675,-14.424099605669628
11.414144531250034,7416.626650587777,108.84721287562388,-14.35929705442456
11.464144531250035,7434.423362365846,108.13082908187869,-14.295430315030464
11.514144531250036,7452.102823036768,107.41769703712434,-14.23044344987596
11.564144531250037,7469.665562508959,106.7077289223133,-14.169620965630594
11.614144531250037,7487.112077293797,106.00065448267546,-14.112565738581374
11.664144531250038,7504.442840978916,105.29649630462444,-14.055066766348626
11.714144531250039,7521.658319110081,104.59506535394394,-14.000781876738117
11.76414453125004,7538.758964671097,103.89649204273759,-13.942522564804314
11.81414453125004,7555.745250896263,103.20078180655533,-13.885850117795448
11.86414453125004,7572.617643995528,102.50792034167297,-13.82763087074092
11.914144531250042,7589.376624046364,101.81807481043836,-13.766416934157913
11.964144531250042,7606.022690335309,101.13127154565966,-13.7056092175663
12.014144531250043,7622.556342497796,100.44753846118677,-13.642815885562054
12.064144531250044,7638.97809742738,99.76702287604364,-13.579721774756033
12.114144531250044,7655.288465909699,99.08945281566446,-13.523972358878794
12.164144531250045,7671.487907275606,98.41457261270354,-13.471564313264686
